-0.000547781326211805
0.0168822734391332
0.0352522308052559
-0.0412371034180684
0.0144455522971654
-0.0139186720788294
-0.0398479704635823
0.034716725093294
0.017814174863388
-0.00977124481170133
0.030687507799962
-0.0182009778579387
-0.0325760930132875
0.0644660950871299
0.0298647560845942
0.00586038187470583
-0.0105474934038927
0.00253807106598991
-0.012050653164557
-0.0175276756360736
0.0241002195952054
-0.0184393431768809
0.0137000521785169
0.00675748964385137
0.0112885180252515
0.0231294846514585
-0.0214271677103828
-0.0283246289338013
-0.027599731808967
-0.0781332943552673
0.00599627529985858
0.0350757114872928
0.0166112951291928
0.0130718623179129
-0.0241935483870968
-0.028209344352617
0.0108855876882732
-0.026472248424627
0.000806544523487052
-0.00564123871009392
-0.0119255177054932
0.00152337715131834
0.0663390421628756
0.0143734695454627
0.0277988110697289
0.000420974544968589
0.014201620328248
-0.0244787978641718
-0.00244553952858473
0.00543596248134737
-0.0172798151748157
-0.00679608436233281
0.00184639947865772
-0.0602775164847683
-0.0284956275957546
-0.00629377753584803
0.0382408819311664
0.00667589802057655
-0.033729671092267
0.00650805806394361
0.0315071721492399
-0.0137907343011336
0.0436842602991361
-0.0108514674089573
0.0135452700426448
-0.00198807154861869
0.00475874275388732
0.0169622313364661
0.00725655784129642
-0.0526881935483871
0.00919416592949296
0.00134962315376796
0.0392002475480202
0.0409641280035924
-0.0116290730272882
0.0105053049583925
-0.00415844673753107
0.0016702787172953
-0.00719119355470121
-0.0216250782778695
0.0171674469045315
0.0223628157480122
-0.00443664887405393
-0.0122292468075292
-0.0158429863779872
-0.0289978775373815
0.00933243282098317
-0.00348089850973576
0.0155004692118714
-0.0311727618098759
-0.0045489405708069
-0.0073562527044555
0.014709241291472
0.00132781892239175
-0.00994587269191893
-0.0113851551014692
-0.00959691769222082
-0.0174418488663719
0.00417683016180925
-0.00970541849663487
-0.00373352005289362
0.029394578163656
-0.0125142090440452
0.0444700560667031
-0.012464206377048
0.0128448677856012
-0.0185266872518748
-0.00179779775280897
0.012606968149796
0.0155624946149677
-0.00875660016684987
0.0174470078941478
-0.00488383986199081
-0.00512597872993836
0.0163341151465237
0.0232985009524163
-0.00632450702041187
-0.00243975821914999
0.0177583792241771
0.00919441029353685
-0.0196707120683595
0.0186925436964294
0.0155504874098122
0.000408340143000618
-0.00785711224489805
0.00524524307584362
-0.0117659302591759
0.011491883693628
0.0058341864636906
-0.0157728304397934
0.00661703880668907
0.0112982537869941
0.0130001931038004
-0.00792060372810521
-0.000505255194702015
0.00495446906057695
-0.0487976461293655
0.00571187850949983
-0.0166176058767856
0
-0.0202138930481284
0.0196485425210289
-0.0193770037736001
-0.00949776221610843
-0.00286566726995474
0.0147010278025752
-0.016775609473564
0.00221578767525399
0.0113862371367039
-0.0134440488237851
-0.0122978060647506
-0.00168257988373344
0.00168541573033698
-0.00515984284554472
0.00078926596483786
0.0113789429612676
-0.00846602456720591
-0.0183126049137713
0.0263218480083034
-0.00635592105263172
-0.000224497809174107
0.0148165681812356
0.0026545513702223
-0.0123552451769389
-0.0034625042272145
0.00963910547367064
-0.0117673731845609
-0.00235900929091259
-0.00608040774868601
-0.00215243011733657
0.00806084223295112
-0.00506819455943019
-0.0078106636998263
0.00467764963656236
-0.020554145368025
0.0150724985507247
-0.0203313071274253
-0.00116589720762139
-0.00677018808848351
0.019156247227935
-0.0257149789470136
0.00958699277043418
-0.00890975349672618
-0.00390350125498584
0.0121126233477333
-0.0232312909809471
-0.0102101861861862
-0.0230582761393623
-0.0319254658385092
-0.00769919158218935
-0.0160352511047394
0.00302278896163943
-0.0151991090146749
-0.0262107756141151
0.0500067755155955
0.0115810022532465
0.0102907514867701
-0.0171886807080636
-0.00971628424106008
0.00392459435048154
-0.0084701852611464
0.0208963606726962
-0.0504634140061793
0.0340292154547392
0.0135047337159329
0.0340232457688261
-0.00312773676967348
0.00313755020080331
0.00100090078818948
0.0049993999500213
-0.0415371699272644
-0.00441153496821067
-0.0243711967533743
-0.0748062907453073
-0.0129945274907731
0.0384727466578008
0.0676152012287703
0.0200553764341551
0.0129349376001795
-0.0292427666771232
0.0222310190304269
-0.00334579852458883
-0.00723044572874543
0.0100143713098499
-0.00939999951583825
0.0146886520213179
-0.0116576482617895
-0.00933249489740773
0.0107287714248332
0.0348220323624597
-0.00350260186383289
-0.0426814188962381
0.00340932327801413
-0.0169889708699283
-0.0289816534301827
0.00301206184266056
-0.00641551989037614
-0.0461601999428465
0.0100820538672044
0.0380722389022774
0.0108515517506229
0.0471531755484806
0.0465871281232062
0.0271542956688333
0.0112264732605734
0.0390355033676317
0.00298715529656302
-0.0145475825470476
-0.008717889209786
0.00586303946837519
0.0158545117259794
0.00413129451608096
-0.03074288
0.000707522714479936
-0.0128432185869016
0.0241108143245501
-0.00431238912660636
-0.0238792110499825
-0.00827439750898673
0.0252721169989887
0.00860945856103945
0.00385875832058313
0.00256263255824418
0.0276518763796909
-0.0223854840831708
0
-0.0138776915244859
0.00117281580296047
0.0141735850706248
-0.0376530598832742
-0.0195631060969753
0.00685515958244176
0.0308814711246201
-0.0213468331012286
0.0261508667335191
-0.0293599523344698
-0.000242044761233018
-0.000726092244684562
0.0311250938597556
-0.0189100307600426
-0.0180773616434498
0.0171909662469263
0.00743141555795268
-0.0379536214888655
0.00160767992075583
-0.00617360183167304
-0.0534227370710084
0.0120750620271672
0.0164699258660366
-0.00255163316732454
-0.042082386799693
0.0263052747537089
0.00572472019613945
-0.0194049151589295
-0.0329815290376704
-0.0255116360636438
-0.016519669606608
-0.00626337366548058
0.0555794887717949
-0.00366405201074627
-0.0399073832717893
0.00851181752055097
-0.00675193454786527
0.00254921395624974
-0.0156801947212856
0.00645805109070019
-0.0400684032540314
-0.027629248366013
0.000916559745135492
-0.0282356392659786
-0.0117794883549391
0.0198664977707088
0.0169861934544551
-0.0350904218482861
-0.0316023657042662
-0.0121350934732699
0.0582668971358933
0.0356077960784313
-0.0671008361299986
0.0720896087027114
0.000605800402934786
0.0387467383078555
0.0348244223294953
-0.0271754587655081
-0.0279344639128363
0.0451161080931444
-0.0249323258318186
-0.0201637048461807
0.0204294965830452
-0.0415023235423061
0.00304932172888073
-0.00349601757872009
0.0326418405320879
0.00280652892791133
0.0431580651518346
-0.0192036289183846
0.00359919383241003
0.0358628609362051
-0.0580252327658943
0.0220523385203912
-0.0146719943040274
-0.0145985401459854
-0.0408889185185185
0.00432497696400924
0.0304522161082228
0.0335820895522387
0.0311913935018051
0.056854737047767
-0.0650590027155293
0.0240930278937934
0.000138319951887178
0.0402657135851272
-0.00532057728119184
-0.0156458680883375
0.0194267080637589
0.0194562763931732
-0.0113725882352941
0.00436337449543989
-0.000789849931409181
-0.0205534381935853
-0.000537974201666569
0.00309550458564578
0.0123439958720513
-0.0237242289088493
-0.014661986713984
-0.00744007970680394
-0.024014477734391
0.00327127018265605
0.00963992047575957
0.00322937372606891
0.0282715757146919
0.00734995226146795
0.0472909053562787
0.00348338269943538
0.000385690413803985
-0.0269888067597688
0.0228503899465118
0.0218232819777044
0.00303305963729517
-0.0026458232589458
0.0222333743186776
-0.0143350967458008
0.0378635522100415
0.0208988043114133
-0.0310022830197069
0.00891444631718685
0.00193652861523153
-0.0259724815894236
-0.0159990208110761
0.0241997239324288
-0.0317499623000255
-0.000508401118454516
0.0138606817632334
0.00739993700991071
0.00224103585657387
-0.0229813416149068
0.0259376980053987
0.0109059112428822
-0.0142208655142821
-0.00410399183663779
0.0104894602774861
0.00432524726458827
0.0150117022890994
0.00715243077106131
-0.00938852890253894
-0.00887002397800651
-0.00257446365085201
-0.0074975539884764
-0.00321983900928791
-0.00969063261748382
0.0195709198290168
0.0510643675795879
-0.000702376509070013
-0.0091377576249092
-0.0357058870724548
-0.00208434286621717
0.0195356188663915
-0.00650760400671457
-0.0274139003538598
0.00885506360688448
0.0284337128005157
0.0206755855108645
-0.015428170277792
0.0107655744202291
-0.0407100828402368
-0.030471281284759
0.0402087308924153
0.0206728073394495
-0.00023974112560543
0.0163030572117731
-0.0238263390401786
0
-0.013895613487298
0.0113956621566518
0.00436153374895154
0.0270204697944398
-0.0152690041727626
0.0094227223007024
-0.00626254305550789
-0.010106991916932
-0.0145345225225225
0.000853242310418612
-0.00755088286991978
-0.0062583754143668
-0.0275376996466645
0.0215872634920635
-0.00832812958339813
0.00150417399729474
0.0225280970581201
-0.036719707590687
0.0151207375522517
0.0310427341474868
0.0227023786802583
0.0702754765022668
0.00554569629344748
-0.00308853946223075
-0.0106218082746783
0.00961754662530856
0.0101904963468153
-0.00712712742742738
-0.00320266140686931
-0.000443175261618189
0.0167368874225573
0.000327035855433255
-0.00642986036552173
0.000438751792009251
-0.00526253706021862
-0.00529045502180792
-0.000775623268697956
0.0106453648259037
-0.0117401690996289
-0.0175419340512933
0.000678099235576823
0.00406551087299234
0.0665841607655309
-0.00537806589943968
0.0117684478371503
-0.0291312794718642
0.00356180240557347
-0.0277479126345048
-0.0215708512926803
0.0282645572051292
0.00021994503199374
-0.0101132020433856
0.00388671836024246
0.0345132182629819
-0.00973049646269775
-0.0308822046120051
-0.00545958774373256
-0.00784230320765633
0.0609756224249238
0.0116007238356826
0.0174644497381025
-0.00620409478031325
-0.0100926229310933
0.0235442298039124
-0.00246455131848078
-0.00720606348781205
0.0088137596679021
-0.0127453796613693
0.00260281095462322
-0.00830740368720451
-0.0106805968586388
-0.00740901754628431
-0.00693113677683022
0.02072373093709
-0.00157788768310296
-0.0108524597680978
-0.0027694291468715
-0.010147457482991
-0.00571920806559212
-0.00434123078295234
-0.0102462940973684
-0.00418507695423753
0.00818409661986497
-0.00241336101740397
0.0125357375734387
-0.00304082313117227
0.0177559580254045
-0.000749213314781172
0.000749775056236412
-0.00856259231510226
-0.0131706039027509
0.0138934027395952
0.0203927492447129
0.00687322618166442
-0.0302457988842071
0.00877199518180616
0.0270530965742761
-0.00418104952819176
0.0181589488241507
-0.0105154329896907
-0.0261513015372588
-0.0110195676578626
0.109043647575862
0.0217518831960168
-0.00964202386634849
0.00694043776634734
-0.0046907716321154
-0.00423200919272848
0.0135226602291381
0.0144858191175068
-0.00582428386540967
0.0205990735972963
-0.0351819547230451
-0.00278285196029981
0.000769842201113091
-0.00499997115384621
-0.00309237524857819
-0.0059131540941002
0.00565571899593209
-0.0106661304372965
0.00499854949523226
-0.00867952985489051
-0.00363997041534736
-0.00177726107599985
0.0241345504279833
0.000772667560626994
0.00540433298385468
0.00988672489921272
-0.0208155310409232
0.00368865279621389
0.0147001544545424
0.00428902981870039
0.000189769378672322
0.000854008927355654
-0.0007584470774048
-0.00199240982936599
0.0026618404285228
-0.0190575706925422
0.00212643535788182
0.00212193287037032
0.00471604418255933
-0.014273369233388
-0.0165209423416727
0.00375499022989101
-0.00570980496732021
-0.0127722871287129
0.0123358039548271
-0.0122845747516431
-0.0251754771868247
0.00977463710722004
0.0170164970146371
0.0163310693584025
-0.0107453073591226
0.00876935742440166
-0.00474170686332975
-0.00575684367245655
-0.0113806431342847
0.00444311829186228
-0.0195033877600945
0.000410140473804166
-0.0130162652454647
0.0167185976100126
-0.00939644533157202
0.0315496964955089
-0.0157921234645041
0.00101552756153622
0.0152176118494471
-0.00539623263715394
-0.0472219134655071
0.00917425900718638
-0.00950884042347455
0.00168789954965809
-0.00379147984596562
0.0261127191505537
-0.0126725327152799
0.00626106634120704
-0.00217773514466468
-0.0175639366289343
0.00126947002295008
0.00169039616079458
0.000527402183892134
-0.0156019817035422
0.0204541021777929
0.0179452091725762
0.00175255670103103
0.0039107235548157
-0.00604822123890669
0.013304465896292
-0.00681931806615788
0.00481657091993104
-0.00703724608759071
0.0124280914910837
-0.00700013188596926
-0.00398446068607872
-0.0189762953939131
0.00104557717529885
-0.00950486754762625
-0.0162395968313909
0.00010721406252312
0.00300106099675035
0.00170972426352378
0.0163217306661347
-0.0100766141516726
-0.0138903406614428
-0.0053763440860215
-0.00508109189189188
-0.00173852006670139
-0.00119735491899353
-0.0344377063112967
0.0257336236057253
0.00891290742450179
-0.000545348444860982
0.0316455917901091
-0.00275017978897629
0.00445479427720397
0.000316853230734493
-0.00950069641610807
-0.00937871662839773
-0.0135556217392884
0.0231213431536406
-0.007461859235942
-0.00622921269220045
0.0015130120124609
-0.0178051260991718
0.00219736328929998
-0.0175399910377111
0.00769911824260916
0.000996611692982263
-0.00796462371759676
-0.00535239741302418
0.0182735992692915
-0.0295056692831516
-0.000453783313584033
0.0223584267125363
-0.00222030412477114
0.00756565445813262
-0.0179990949204746
-0.0212526593950298
0.0170036303193517
-0.00508356320888725
-0.00249803565345741
-0.00830956194216426
0.00654268802079838
0.00114036945739837
-0.00455635032969193
0.00698021520746317
0.011590875
0.0110087961472296
0.00577774444444445
0.020437539342826
-0.0224098726076689
-0.0184939750223486
-0.0021436873116446
0.0133423900193941
0.0112697385203169
-0.000661999359880872
0.0136910456000883
0.000653578055845427
0.000326537487976397
-0.00217633292325725
0.0284623891536222
-0.00689210066572155
-0.00800768703789512
0.00430517686771381
0.0167185192737869
-0.00126492037741366
0.0129815620052771
-0.0058346007761636
-0.00293438488648889
-0.00714736185776088
-0.0226550817558234
-0.0370450389948006
0.0174352639497128
-0.00862353815224548
0.0165050076169289
-0.0087767853257974
-0.0136136693661023
-0.00662033191358835
-0.00609963860950691
-0.0110239916132285
-0.0234428185512349
-0.0188280294600601
0.00851521978346903
-0.00475673705585611
0.00657182443369986
0.0103276711853673
-0.0057572317500032
-0.00129994086622753
-0.0131345399802499
-0.00299760184658027
0.00625371001193731
0.0157762642709756
0.00776566673174894
0.00256860472694442
0.0230580520650501
0.00853727964797457
-0.0205417498993623
0.0132519130358599
0.00614126009325577
0.0297275570280597
0.0074643360584925
0.015689714705706
-0.00182362152087934
0.000859688311885431
0.0112745950158251
-0.00307922064132515
0.00702954528735278
0.0184029396593461
0.00602349147342918
0.00464536993975306
-0.00513769009453346
-0.000826296219789246
0.00454829449138505
-0.00699732455237712
-0.00176163730569956
0.00228382638256375
-0.00372864825286434
0.00322276737243432
0.00290154404145082
0.00154991735430787
-0.00288866192097392
-0.000310387991507732
