0.0298080511487868
0.0209879412550067
0.0254210806745929
-0.0118852686763499
0.00614314161964358
0.00487435623009835
-0.0165943318888639
0.0144859497044874
-0.0170939966221403
0.00156210358631403
0.0589550072590068
-0.0162993076115734
-0.00948242769840646
0.0341613237853446
0.00409255054811219
0.00393031207589511
-0.00304490100661869
-0.00489654327053779
-0.00662574315382669
0.00652281529738552
-0.00648054390645703
0.00701328122648204
0.0154385524235274
0.010359731414868
0.0094939711479356
0.012649308517835
0.00102160201472201
-0.000788671863852231
0.00719592406302483
0.0086195530512938
0.00479840947634003
-0.00336558881822135
0.0188472136385303
0.00201564101090135
-0.00384426255837655
-4.49181051401792e-05
0.0127894724966697
-0.0214453274717946
0.00792393005413827
-0.0124887597711925
-0.00777912809465453
-0.00664800330108672
0.0258469025044421
0.0213713674445613
0.00392053223877009
0.00745946487387794
0.00640244756788033
0.000216332705540889
0.00203357566690165
0.00375668213233182
-0.00344146080767116
-0.00220154533019867
-0.00757084164146682
-0.0258064435694797
-0.00246108828460867
0.00444088294768341
0.0266166758361619
-0.0126587869730506
-0.0031722341880227
0.00327074475138112
-8.81272279450451e-05
-0.00339254524040578
0.0184792576212072
-0.00963625297966408
-0.000569801883418486
0.0145595229974962
-0.0153015254298287
4.39401259288985e-05
-0.00816434876079897
-0.0186758713398157
0.0179038508729905
-0.0125382212785018
0.00381367545201572
0.014168855569997
0.00242398419807799
0.0128379865964032
0.00212703046624196
-0.0174997487654857
0.00626046181957629
-8.76445823437821e-05
0.0210761368760308
0.0160494615804785
-0.00388561888946026
0.00165359334355908
-0.00313243303930488
0.00484076433121006
-0.000633848884381338
0.00118397392234826
-0.00464588411292166
0.000721339166812385
-0.00195044101001429
0.00985636825802749
-0.0132940767908132
0.00341094065176795
0.0004674088632175
-0.0147801828801051
0.00137945422787911
-0.019888915232397
-0.0109369087796979
0.0200728491010871
-0.00779273849007822
0.00952129332593943
-0.0122566410617468
0.010472613142813
-0.0151106166173141
0.0127779989634169
-0.011481734143733
-0.00415133168401116
-0.0134374026314941
-0.00521442941973127
0.00750113859012846
0.00686221725343872
0.00467721489570461
-0.00478845450355037
-0.0039205380757229
0.00286251003790583
0.00303269999970834
0.00546914198672677
0.00977310379386886
0.00508016125217048
0.00039213943355132
-0.00709956892024177
-0.0030268555090317
-0.00228804501627056
-0.000617420066152063
0.00472173337451998
-0.00276698885337279
-0.0028628495421652
-0.00229677567924302
-0.0113777490459049
-0.0110160405805028
-0.000407570738304663
0.00638704492807696
-0.0027456452513448
0.0134952429454345
0.00213758179224977
-0.0153312715222972
0.00212113907283018
0.0128799817540197
0.0184073626178052
-0.00750928605091838
-0.012492834095871
0.00405357911567794
0.0150843393545077
0.0126747899882029
-0.00332328016095429
-0.00407043706994981
-0.0046089567909311
0.00131046175898186
-0.000174471058316472
-0.0107770844209862
0.010673950152841
0.00296765296325407
-0.00404667986957874
0.000611638778452717
-0.00340565867707865
0.00762324644030676
-0.00530458701757675
-0.000611968341793556
-0.00231814718421652
0.00504162196295588
0.0114722093784079
0.00909954271003022
-0.00316255387420261
-0.0102465166130761
0.00493805769730571
0.0057758448275862
0.009771149563232
-0.00432896196127586
0.00741683697996165
0.00101551156834234
-0.00270521597172024
-0.00194967362931531
0.0022932223932941
-0.0256757812782683
-0.00226128016364724
0.0155160301994768
-0.0050643433476395
-0.00698823200799825
-0.000347523898306279
-0.0170345909444566
-0.00406718840083442
0.0200639472661928
0.0141862225555054
0.00926801689923629
-0.0053566703056146
-0.044110128805519
-0.000178832051511257
-0.00849736113155564
-0.0238159589321779
-0.0011089825442101
-0.022758803691694
-0.0225314500387612
-0.00832930750605321
0.0442425924821037
0.0154321177596728
-0.000460560007368382
-0.00129008481266357
-0.00470561002137693
-0.0123296742654211
0.000469260367286894
-0.012946777857089
-0.0122612015232506
0.0258853257483702
-0.0206359345217527
-0.0036395458810633
-0.00490245126312072
0.0113987638542918
-0.0042024356504996
0.00297331665119271
-0.0197953523955244
-0.0256585073170732
-0.0266346642645039
-0.0509206568349002
-0.013115098349987
0.022515045935803
0.0224490230386472
0.00966487005641614
-0.00853189045331493
-0.0413474966801607
0.0238642698164044
0.00481133331349648
-0.00712922939574712
0.0331154652902255
-0.0031120746242308
0.00561915724493578
0.000827835273466748
-0.0264681242093866
0.00127437335283043
0.00837930641047202
-0.0064163353318607
-0.0134448127614313
0.0027899452132214
-0.0195826009496822
-0.0183366180418045
-0.020346908598023
0.00261031662001687
-0.0433551525177791
0.017039344053027
0.0202443869776983
0.0278252359944067
0.0280706433397528
0.0208287493706563
-0.0125805481586023
0.00974299765004272
0.0154808507153188
0.00208837847201759
0.0142752421144603
-0.00164368200713705
0.0014406256431363
0.0199342581175503
0.0149102958913905
0.00436769911391122
0.00197664558213084
-0.00729925056123248
0.0296105328856371
0.00357069088291762
-0.000576959334108174
-0.00962186086789185
0.0136014961624404
-0.000479277284016422
-0.000191762564171083
-0.00249378472100936
0.00182694230769243
-0.00316730006397359
-0.00625844399905218
-0.00203467689211001
-0.0123300679611651
-0.00599626444520995
0.00484570792585903
-0.0236197419189081
0.0163290294963112
0.0111077554079588
-0.0023540755964907
0.0247763644162458
-0.00825098316460759
0.0120924829614255
0.00812462221015231
0.000189598936289004
0.00919519403157065
-0.00234829985298046
-0.0044252048246417
0.00964634026189404
-0.0133009176976224
-0.00987272678461082
0.0159155891874709
-0.00915440740991325
-0.0213353466298761
-0.011678802919708
-0.00659779399514149
-0.0213123915933503
-0.0101286333395533
0.00839046326438786
0.0169456920260063
-0.0197565653586453
-0.0198493184008411
0.00976219742691664
0.0157358732160073
0.0149857834146256
0.00149641862522776
-0.00488093440463133
0.00680680667053424
-0.00805334046424044
-0.00952187058800869
-0.00870270188221001
0.00357287672083384
-0.0187162754290768
-0.012646428810548
-0.00797902362204728
-0.000423335811690961
0.00709376412155938
-0.0217619841748743
0.00558836091601189
-0.0178475793523565
-0.00326446130001179
0.0209606882305828
-0.0171086297190536
0.0134900568644485
-0.022005183683762
0.0161343539004022
0.00237633393008574
-0.00765093725266375
0.0329026727289683
0.0049410532503873
-0.0266763793985303
0.022248495031723
0.00620330137521496
-0.0295715160785219
-0.034672131969243
0.0149469712225996
0.00384655465098471
-0.0226625694181112
0.0281169719317902
0.0200479845287425
0.0147404075601236
-0.00326313684210522
0.00992707762325318
0.0113981390169864
-0.0191273571223392
0.0085379674753463
0.0139005225752509
0.0118544683670865
-0.016605592232861
0.0315964263088824
-0.0025105442355785
0.00976543824090537
0.0218344460069457
0.00858625248485212
-0.0179936243205875
0.00758542985744404
0.00615961093233874
0.0204061599297964
-0.00257122173943014
0.000190987210062721
0.0176594021065406
0.0261701620282322
-0.00457038382869501
-9.1854911076994e-05
0.00872437330080245
-0.00637287896478067
-0.00174090161023377
0.00413038102240604
0.0106946798776109
0.0120285972686986
-0.00366402138223376
0.0145304783304419
-0.00813366627058898
-0.00677424000758997
0.00583327649645504
-0.0131156403798065
0.0110297530871553
-0.00134133950923099
0.0112822528653296
0.0114220026310961
0.00245118613889916
0.00733556881782249
0.00346772437742038
0.00691147300215977
-0.00411842975242149
-0.0500559834582579
0.0265735529371749
-0.00521250984693866
0.00843698949266414
-0.00493179203174487
-0.00194708384719144
-0.0211048866127043
0.00769996383458604
-0.0156418377497634
-0.00831053881278543
-9.20342606882674e-05
-0.00248668258451501
-0.00803246252483525
0.012006710498758
-0.0120482384241265
0.000651647749984052
-0.00734953032560293
0.0136832899817232
-0.0106324145476178
-0.00579387896843508
-0.00704953479696901
0.00539568350431341
0.00207137747925223
0.0124964953490556
0.00519671482559914
-0.0057238090841949
0.00835655547882697
-0.00847143662010008
0.00278606054977693
0.00203735871353894
-0.00489832730771689
0.00417948368495358
-0.00323719931824262
0.0295072848522024
-0.00468676894150788
-0.0107760753418455
-0.0141889054227188
-0.00566440698923953
-0.00429584414837791
0.00318885753548526
0.0114061425898107
0.00221850619338149
-0.00332042064785887
-0.00231352956345598
0.0316297473635052
-0.0763351728435967
-0.0393263981506941
0.018948180789377
0.0191925222591991
0.0161967414615425
0.00355252033504527
-0.0178912653432243
0.00311737938397694
0.000582674559748808
0.0319324568759822
0.00272762415349881
0.0196041270086846
0.00708375364536584
-0.00767337162991344
0.00589155866404001
0.000274604198991613
-0.00841725502971857
0.0152242299840624
-0.0130873672006486
-0.00865635909959883
-0.00984678105254477
0.0015949526820509
-0.00627581479438344
-0.00574976928079063
-0.00729999979237772
-0.000382017002979684
-0.00936272111135417
0.00617224407035866
-0.00220458157376435
0.00317004809164367
0.000478818347218191
-0.00105283304787041
0.00306600546902369
0.000477562317746427
-0.00716058825970189
0.00451967505567219
-0.0077541356285098
-0.000578929077106993
0.00173762918187581
0.0092512867664436
0.0045831756540673
0.0116909325319927
-0.000469776391022636
0.0033837861019248
-0.00936768149882905
0.0174940709219857
-0.00297396845676512
-0.0130499814788403
0.000944522127253045
0.0100018679939082
0.00541855376103739
-0.008269838089486
-0.0133982943858812
-0.0421652599573051
0.018838002985941
-0.0155702410360016
-0.00474499783531046
0.00556215733015497
-0.01017383465377
0.0086817983103662
0.00178076767351087
0.011850651553414
0.0066367363521056
0.00126040334749278
-0.0109421713259079
0.00303503038021358
0.0109321916329583
-0.0145795307521484
0.0127376349742825
0.000774003475483731
-0.0134377317587446
-0.0046055951610311
0.00600511899970235
-0.0827869540505539
0.00128021973924408
-0.0165156636444467
-0.00390033573455029
0.00195780939835077
0.00521054042953084
0.000648012972959355
0.00161875667521016
-0.00269367530855891
0.00108044514002703
-0.00302187554405886
0.00930938545061877
-0.0216644899541933
0.0142512166821835
0.00897104438946306
-0.00514188548777472
0.00279954766449197
-0.00418768401764258
-0.0038818310088814
-0.00681962568152072
0.0115531117166212
0.0165930399007228
0.00413354539763744
0.00580539383165291
0.0165809841895164
-0.0113554863831272
0.00292373403749813
0.00187402388732871
0.00135090923773529
0.00259443749901989
-0.0146982608974405
0.0105053049583925
0.00447032946313897
0.0100392565709193
0.0055333643009885
-0.00794862961220721
0.00667695956193026
-0.0211224489795918
-0.00719276555821957
-0.0069298195491353
0.0149079717718763
0.00239611422848451
0.0203699748454587
0.012528050519454
-0.00110653853308362
-0.00654583061795078
-0.0162189454390482
-0.00906754222356898
-0.000727877731681037
-0.0018730489463693
0.00312763767989233
-0.00602787356030055
0.00240489337520788
-0.00907481978487057
-0.00326313684210522
0.0122504591350625
-0.012310902708626
0.0067603254834756
-0.0057706013171881
0.00517093699512583
0.0212073175853018
-0.0169630312623532
-0.000313815091597447
0.00795064370543552
0.000415163475146141
0.00248986411961671
0.00248376288369334
-0.00567774319156367
-0.00363371054817274
0.00750235482439998
0.00837726738282618
0.0153846153846153
0.0125252323232323
0.015562699831658
-0.00707270116681635
0.00761768880851443
0.00166911147116577
9.80396029612862e-05
-0.0197980693893763
0.00549940994901688
0.000198926018276202
0.00357924033447543
-0.0101050523062205
0.000900760626516339
0.000899869995003133
0.000299690315678225
0.00409471699075348
0.00268546844355
0.0075389546183704
-0.000689179875947521
0.00266006896551718
0.00589570617752888
0.00615411723686288
-0.00184467961165058
-0.00204260289937941
0.00692007810760376
-0.00832447020277749
-0.000195187902250371
0.008395987503661
-0.00881018483095963
-0.00312560079485069
-0.00842642579710806
-0.00415017798864159
0.0600317826952945
-0.0365066173077483
-0.00816092490041787
0.0057792538262027
-0.0092520159719518
0.0227071456982066
-0.00403688961902271
0.008396014039876
0.0103359366510849
-0.0103248744908592
-0.00220140690463033
0.00354918944844118
-0.00793349241253605
0.000289035549773109
0.011076873434791
0.00762118693320768
-0.00510536083309154
-0.00142545847879527
0
-0.0029501807584662
0.00219531360681424
0.00257140000000011
0.00740957558875954
-0.00245169252847643
0.00255219772613469
-0.00942862548422829
-0.00609175720715305
0.00928941791398996
-0.00616757762755082
0.00248235635826544
0.0130476476190475
-0.00404250247130289
0.019539361534088
0.0260160906209408
-0.00306801118931599
0.00733162543451416
-0.0130290680831247
-0.0034595503809014
9.13758458922498e-05
-0.00246646567583386
0.00631869980729038
0.00609699705247957
-0.0192655394223142
-0.00534909157982111
0
-0.00361612431369729
-0.0031639307943786
0.00802837916276
-0.00527874591742694
-0.0179685404350232
-0.000853280218431451
0.012714716886941
-0.00290457220356299
0.00263107503535176
0.00224934401825716
-0.000280512431634405
0.00308665220889903
-0.0070868613779721
-0.00112699095247015
0.0263257143068285
0.0115426342417504
-0.0186560137412791
0.000184533036318602
-0.00489019205269037
0.000649049617970299
0.0186249262161773
0.00191029746202132
0.012983484773774
-0.000627408801649132
-0.00161434977578478
-0.00143726194753857
-0.000449829059020246
-0.0029700476737462
-0.000902680997496685
-0.00099385616190828
0.000994844894637081
0.0012649078424285
-0.00297781988810675
0.00524936202822635
-0.012784712343567
0.0028271499712329
0.00591125869326348
0.000632845125821957
-0.0056920581857608
0.00863241230443212
-0.000180153153153229
-9.01243442928967e-05
0.00783991161719455
0.00500720690297585
0.00355872769468468
0.00141840421759554
-8.85446183476191e-05
0.00575476774913075
-0.0605633549394957
-0.00327959142354206
-0.00921316134587302
0.0163203531295222
-0.00336104002090332
-0.00562059016393446
-0.00113050398246806
-0.00735639920170139
-0.00133015676959625
0.0104652077778973
-0.0144995858629091
0.00324834247154571
0.00123794874320637
-0.0165493343784415
-0.000290125719726864
-0.0197349418670327
-0.00592123742383821
0.0181673279608658
0.00370518727974245
0.00777147838019276
-0.010217833241138
-0.00584337748344388
0.00303680440758614
0.0209981640882719
-0.00870484016926687
0.000771996548450948
9.64420026654533e-05
0.00414578669354237
-0.00278445505934799
-0.000481446172911237
0.00491284086143606
0.00258815184049088
-0.0109952580933266
0.00734720596776461
-0.00182336857456911
-0.00403813087129834
0.022299508535554
0.00745986765892614
-0.0152779451630343
0.0135161338952243
-0.00169045825440095
0.00470366872896522
0.0144194097073198
0.00433821319321437
0.00165425974918221
-0.00211024868538856
0.0036778410504259
-0.00595458021419637
-0.00479222182670314
0.00796370049011386
-0.00174546627001315
0.021535025896005
0.00891890090090097
0.0024109653078126
0.0068590502964716
0.0022118021959816
-0.00564971756399824
-0.00230825641253773
0.000267013710633979
0.00880702753110829
0.000881816562930959
